freq,voltage
0.025,1.288
0.100,1.272
0.150,1.264
0.200,1.240
0.250,1.208
0.300,1.184
0.350,1.160
0.400,1.136
0.500,1.064
0.750,0.920
1,0.784
1.5,0.592
2,0.472
2.5,0.384
3,0.328
3.5,0.280
4,0.256
5,0.208
6,0.184
7,0.152
8,0.136
9,0.128
10,0.112
20,0.064
30,0.044
40,0.036
50,0.033
75,0.031
100,0.029