Frequency(Hz),Output voltage(V)
100,0.16
500,0.48
1000,0.92
2000,1.7
3000,2.2
4000,2.7
5000,3.0
6000,3.2
7000,3.4
8000,3.6
9000,3.8
10000,4.0
12000,4.2
14000,4.2
20000,4.4
30000,4.4
40000,4.4
60000,4.4
80000,4.4
100000,4.4
120000,4.4
140000,4.4
160000,4.4
180000,4.2
200000,4.2
250000,4.0
300000,3.8
350000,3.6
400000,3.4
450000,3.0
500000,2.8
550000,2.6
600000,2.4
650000,2.4
700000,2.2
750000,2.2
800000,2.2
850000,2.2
900000,2.0